   0.0000   2138250
   0.0050   2545400
   0.0100   2857230
   0.0150   2954670
   0.0200   2845940
   0.0250   2560520
   0.0300   2099380
   0.0350   1585870
   0.0400   1191370
   0.0450    949817
   0.0500    851154
   0.0550    801368
   0.0600    780370
   0.0650    782116
   0.0700    799188
   0.0750    828900
   0.0800    852884
   0.0850    892574
   0.0900    928716
   0.0950    967023
   0.1000    993946
   0.1050   1027800
   0.1100   1058910
   0.1150   1082290
   0.1200   1126510
   0.1250   1165800
   0.1300   1199580
   0.1350   1238170
   0.1400   1259580
   0.1450   1282980
   0.1500   1318190
   0.1550   1339430
   0.1600   1369020
   0.1650   1376800
   0.1700   1401520
   0.1750   1420900
   0.1800   1452190
   0.1850   1474910
   0.1900   1485290
   0.1950   1502320
   0.2000   1483390
   0.2050   1444330
   0.2100   1371160
   0.2150   1271960
   0.2200   1145890
   0.2250   1014710
   0.2300    871963
   0.2350    769456
   0.2400    643022
   0.2450    509387
   0.2500    392947
   0.2550    298865
   0.2600    232010
   0.2650    186748
   0.2700    157162
   0.2750    136637
   0.2800    119021
   0.2850    104355
   0.2900     91025
   0.2950     78720
   0.3000     68860
   0.3050     62524
   0.3100     57980
   0.3150     53823
   0.3200     50253
   0.3250     45907
   0.3300     41414
   0.3350     37502
   0.3400     33474
   0.3450     31042
   0.3500     29265
   0.3550     28383
   0.3600     27404
   0.3650     25920
   0.3700     23998
   0.3750     21816
   0.3800     19652
   0.3850     17891
   0.3900     16759
   0.3950     16386
   0.4000     15642
   0.4050     15776
   0.4100     15195
   0.4150     14411
   0.4200     13220
   0.4250     12181
   0.4300     10847
   0.4350     10038
   0.4400      9363
   0.4450      9413
   0.4500      9512
   0.4550      9396
   0.4600      9254
   0.4650      8813
   0.4700      8077
   0.4750      7408
   0.4800      6584
   0.4850      6016
   0.4900      5825
   0.4950      5918
   0.5000      5850
   0.5050      5949
   0.5100      6089
   0.5150      5643
   0.5200      5329
   0.5250      4795
   0.5300      4260
   0.5350      3909
   0.5400      3722
   0.5450      3692
   0.5500      3807
   0.5550      3870
   0.5600      3932
   0.5650      3867
   0.5700      3652
   0.5750      3320
   0.5800      2926
   0.5850      2617
   0.5900      2409
   0.5950      2429
   0.6000      2511
   0.6050      2525
   0.6100      2608
   0.6150      2724
   0.6200      2571
   0.6250      2291
   0.6300      2054
   0.6350      1887
   0.6400      1709
   0.6450      1737
   0.6500      1703
   0.6550      1784
   0.6600      1890
   0.6650      1911
   0.6700      1835
   0.6750      1629
   0.6800      1515
   0.6850      1295
   0.6900      1190
   0.6950      1108
   0.7000      1126
   0.7050      1139
   0.7100      1230
   0.7150      1313
   0.7200      1310
   0.7250      1272
   0.7300      1098
   0.7350      1009
   0.7400       923
   0.7450       813
   0.7500       769
   0.7550       806
   0.7600       856
   0.7650       880
   0.7700       989
   0.7750       935
   0.7800       888
   0.7850       762
   0.7900       702
   0.7950       644
   0.8000       598
   0.8050       626
   0.8100       617
   0.8150       674
   0.8200       665
   0.8250       651
   0.8300       642
   0.8350       561
   0.8400       544
   0.8450       475
   0.8500       364
   0.8550       407
   0.8600       404
   0.8650       448
   0.8700       468
   0.8750       454
   0.8800       483
   0.8850       449
   0.8900       390
   0.8950       360
   0.9000       338
   0.9050       259
   0.9100       293
   0.9150       312
   0.9200       317
   0.9250       321
   0.9300       352
   0.9350       332
   0.9400       295
   0.9450       289
   0.9500       231
   0.9550       227
   0.9600       236
   0.9650       214
   0.9700       233
   0.9750       256
   0.9800       247
   0.9850       213
   0.9900       235
   0.9950       232
   1.0000       188
   1.0050       170
   1.0100       174
   1.0150       148
   1.0200       178
   1.0250       190
   1.0300       199
   1.0350       192
   1.0400       181
   1.0450       149
   1.0500       150
   1.0550       147
   1.0600       142
   1.0650       137
   1.0700       137
   1.0750       138
   1.0800       142
   1.0850       139
   1.0900       147
   1.0950       154
   1.1000       132
   1.1050       132
   1.1100        90
   1.1150       101
   1.1200       113
   1.1250       117
   1.1300       122
   1.1350       105
   1.1400        95
   1.1450        96
   1.1500       101
   1.1550        88
   1.1600       110
   1.1650        74
   1.1700        54
   1.1750        76
   1.1800        72
   1.1850        84
   1.1900        84
   1.1950        76
   1.2000        68
   1.2050        78
   1.2100        75
   1.2150        65
   1.2200        62
   1.2250        47
   1.2300        62
   1.2350        57
   1.2400        62
   1.2450        58
   1.2500        58
   1.2550        78
   1.2600        60
   1.2650        68
   1.2700        56
   1.2750        44
   1.2800        42
   1.2850        41
   1.2900        55
   1.2950        50
   1.3000        59
   1.3050        47
   1.3100        51
   1.3150        40
   1.3200        44
   1.3250        28
   1.3300        24
   1.3350        31
   1.3400        32
   1.3450        42
   1.3500        32
   1.3550        40
   1.3600        41
   1.3650        34
   1.3700        33
   1.3750        28
   1.3800        22
   1.3850        30
   1.3900        32
   1.3950        34
   1.4000        31
   1.4050        39
   1.4100        29
   1.4150        25
   1.4200        30
   1.4250        26
   1.4300        14
   1.4350        15
   1.4400        21
   1.4450        26
   1.4500        22
   1.4550        21
   1.4600        19
   1.4650        16
   1.4700        20
   1.4750        17
   1.4800        25
   1.4850        19
   1.4900        16
   1.4950        14
   1.5000        16
   1.5050        21
   1.5100         9
   1.5150        18
   1.5200        18
   1.5250        18
   1.5300        13
   1.5350         6
   1.5400        14
   1.5450        11
   1.5500        16
   1.5550        10
   1.5600        18
   1.5650        23
   1.5700        17
   1.5750        14
   1.5800        14
   1.5850         6
   1.5900        11
   1.5950        11
   1.6000        14
   1.6050         8
   1.6100        11
   1.6150         7
   1.6200        10
   1.6250        13
   1.6300         7
   1.6350        11
   1.6400        16
   1.6450         7
   1.6500         9
   1.6550        10
   1.6600         7
   1.6650        14
   1.6700         7
   1.6750         9
   1.6800         9
   1.6850         7
   1.6900         3
   1.6950         4
   1.7000         8
   1.7050         3
   1.7100        12
   1.7150        13
   1.7200         8
   1.7250         9
   1.7300         9
   1.7350         6
   1.7400         7
   1.7450         5
   1.7500         2
   1.7550        10
   1.7600         4
   1.7650        11
   1.7700         9
   1.7750         6
   1.7800         7
   1.7850         5
   1.7900         3
   1.7950         1
   1.8000         4
   1.8050         5
   1.8100         4
   1.8150         3
   1.8200         9
   1.8250         1
   1.8300         5
   1.8350         8
   1.8400         4
   1.8450         3
   1.8500         3
   1.8550         6
   1.8600         4
   1.8650         3
   1.8700         3
   1.8750         5
   1.8800         0
   1.8850         3
   1.8900         1
   1.8950         6
   1.9000         1
   1.9050         5
   1.9100         7
   1.9150         4
   1.9200         2
   1.9250         2
   1.9300         1
   1.9350         1
   1.9400         2
   1.9450         1
   1.9500         2
   1.9550         2
   1.9600         2
   1.9650         5
   1.9700         0
   1.9750         3
   1.9800         4
   1.9850         5
   1.9900         0
   1.9950         0
   2.0000         3
   2.0050         3
   2.0100         3
   2.0150         3
   2.0200         2
   2.0250         1
   2.0300         5
   2.0350         3
   2.0400         1
   2.0450         3
   2.0500         3
   2.0550         1
   2.0600         0
   2.0650         3
   2.0700         0
   2.0750         4
   2.0800         2
   2.0850         0
   2.0900         3
   2.0950         6
   2.1000         1
   2.1050         0
   2.1100         1
   2.1150         3
   2.1200         1
   2.1250         0
   2.1300         3
   2.1350         4
   2.1400         1
   2.1450         0
   2.1500         1
   2.1550         0
   2.1600         1
   2.1650         2
   2.1700         4
   2.1750         1
   2.1800         1
   2.1850         1
   2.1900         0
   2.1950         2
   2.2000         2
   2.2050         2
   2.2100         2
   2.2150         2
   2.2200         1
   2.2250         0
   2.2300         3
   2.2350         3
   2.2400         0
   2.2450         1
   2.2500         1
   2.2550         1
   2.2600         1
   2.2650         2
   2.2700         0
   2.2750         0
   2.2800         1
   2.2850         1
   2.2900         0
   2.2950         1
   2.3000         1
   2.3050         0
   2.3100         1
   2.3150         1
   2.3200         1
   2.3250         4
   2.3300         3
   2.3350         1
   2.3400         0
   2.3450         1
   2.3500         0
   2.3550         1
   2.3600         0
   2.3650         2
   2.3700         0
   2.3750         0
   2.3800         2
   2.3850         0
   2.3900         0
   2.3950         2
   2.4000         1
   2.4050         3
   2.4100         2
   2.4150         1
   2.4200         0
   2.4250         1
   2.4300         1
   2.4350         0
   2.4400         3
   2.4450         1
   2.4500         1
   2.4550         2
   2.4600         0
   2.4650         3
   2.4700         2
   2.4750         1
   2.4800         2
   2.4850         1
   2.4900         2
   2.4950         2
   2.5000         1
