   0.0000    402357
   0.0050    321364
   0.0100    253672
   0.0150    211148
   0.0200    185993
   0.0250    168419
   0.0300    157702
   0.0350    154474
   0.0400    150984
   0.0450    142935
   0.0500    134578
   0.0550    129921
   0.0600    121860
   0.0650    113747
   0.0700    112874
   0.0750    110619
   0.0800    108195
   0.0850    109678
   0.0900    108411
   0.0950    108318
   0.1000    107110
   0.1050    103285
   0.1100     99763
   0.1150     96361
   0.1200     90352
   0.1250     82948
   0.1300     76390
   0.1350     71603
   0.1400     66661
   0.1450     61455
   0.1500     53977
   0.1550     47070
   0.1600     41423
   0.1650     37307
   0.1700     34149
   0.1750     31294
   0.1800     28181
   0.1850     25165
   0.1900     22409
   0.1950     19799
   0.2000     17440
   0.2050     15058
   0.2100     12862
   0.2150     10823
   0.2200      9159
   0.2250      7350
   0.2300      6055
   0.2350      4763
   0.2400      3920
   0.2450      3241
   0.2500      2572
   0.2550      2132
   0.2600      1866
   0.2650      1555
   0.2700      1466
   0.2750      1180
   0.2800      1015
   0.2850      1004
   0.2900       867
   0.2950       794
   0.3000       782
   0.3050       736
   0.3100       678
   0.3150       574
   0.3200       553
   0.3250       513
   0.3300       485
   0.3350       471
   0.3400       420
   0.3450       478
   0.3500       414
   0.3550       409
   0.3600       355
   0.3650       363
   0.3700       325
   0.3750       264
   0.3800       246
   0.3850       256
   0.3900       275
   0.3950       248
   0.4000       256
   0.4050       257
   0.4100       246
   0.4150       212
   0.4200       206
   0.4250       193
   0.4300       194
   0.4350       167
   0.4400       146
   0.4450       191
   0.4500       186
   0.4550       169
   0.4600       170
   0.4650       154
   0.4700       138
   0.4750       125
   0.4800       118
   0.4850       115
   0.4900       132
   0.4950       136
   0.5000       143
   0.5050       111
   0.5100       141
   0.5150       112
   0.5200       112
   0.5250       107
   0.5300        82
   0.5350       109
   0.5400       103
   0.5450       110
   0.5500        92
   0.5550       105
   0.5600       101
   0.5650       107
   0.5700        91
   0.5750        81
   0.5800        75
   0.5850        88
   0.5900        82
   0.5950        88
   0.6000        74
   0.6050        82
   0.6100        80
   0.6150        76
   0.6200        76
   0.6250        71
   0.6300        61
   0.6350        64
   0.6400        73
   0.6450        69
   0.6500        66
   0.6550        56
   0.6600        78
   0.6650        80
   0.6700        71
   0.6750        66
   0.6800        71
   0.6850        58
   0.6900        55
   0.6950        67
   0.7000        63
   0.7050        62
   0.7100        70
   0.7150        65
   0.7200        65
   0.7250        56
   0.7300        54
   0.7350        44
   0.7400        49
   0.7450        51
   0.7500        41
   0.7550        37
   0.7600        50
   0.7650        50
   0.7700        50
   0.7750        51
   0.7800        34
   0.7850        25
   0.7900        30
   0.7950        27
   0.8000        31
   0.8050        35
   0.8100        31
   0.8150        21
   0.8200        39
   0.8250        39
   0.8300        47
   0.8350        24
   0.8400        30
   0.8450        19
   0.8500        33
   0.8550        27
   0.8600        26
   0.8650        32
   0.8700        32
   0.8750        34
   0.8800        29
   0.8850        16
   0.8900        23
   0.8950        23
   0.9000        17
   0.9050        23
   0.9100        20
   0.9150        25
   0.9200        26
   0.9250        16
   0.9300        25
   0.9350        12
   0.9400        21
   0.9450        19
   0.9500        12
   0.9550        12
   0.9600        18
   0.9650        13
   0.9700        23
   0.9750        22
   0.9800        27
   0.9850        15
   0.9900        15
   0.9950        19
   1.0000        14
   1.0050        15
   1.0100        17
   1.0150        12
   1.0200        18
   1.0250        20
   1.0300        15
   1.0350        13
   1.0400        13
   1.0450        18
   1.0500        15
   1.0550        18
   1.0600        10
   1.0650        13
   1.0700         7
   1.0750        12
   1.0800        10
   1.0850        13
   1.0900        11
   1.0950         9
   1.1000         8
   1.1050         6
   1.1100         7
   1.1150         8
   1.1200        10
   1.1250        12
   1.1300         8
   1.1350         8
   1.1400        12
   1.1450         8
   1.1500        11
   1.1550        10
   1.1600         7
   1.1650         8
   1.1700         7
   1.1750         4
   1.1800         6
   1.1850         8
   1.1900         9
   1.1950         8
   1.2000         5
   1.2050         5
   1.2100         3
   1.2150        10
   1.2200         4
   1.2250         7
   1.2300        11
   1.2350         5
   1.2400         6
   1.2450        11
   1.2500         6
   1.2550         9
   1.2600        14
   1.2650         2
   1.2700         5
   1.2750         4
   1.2800         5
   1.2850         5
   1.2900         4
   1.2950         4
   1.3000         4
   1.3050         4
   1.3100         6
   1.3150         5
   1.3200         3
   1.3250         4
   1.3300         4
   1.3350         8
   1.3400         1
   1.3450         2
   1.3500         6
   1.3550         2
   1.3600         6
   1.3650         6
   1.3700         1
   1.3750         3
   1.3800         7
   1.3850         3
   1.3900         3
   1.3950         1
   1.4000         6
   1.4050         3
   1.4100         0
   1.4150         2
   1.4200         4
   1.4250         2
   1.4300         3
   1.4350         3
   1.4400         0
   1.4450         2
   1.4500         4
   1.4550         3
   1.4600         2
   1.4650         1
   1.4700         2
   1.4750         2
   1.4800         2
   1.4850         3
   1.4900         1
   1.4950         2
   1.5000         3
   1.5050         3
   1.5100         3
   1.5150         1
   1.5200         1
   1.5250         0
   1.5300         3
   1.5350         0
   1.5400         1
   1.5450         2
   1.5500         4
   1.5550         2
   1.5600         4
   1.5650         3
   1.5700         3
   1.5750         0
   1.5800         4
   1.5850         0
   1.5900         2
   1.5950         0
   1.6000         0
   1.6050         1
   1.6100         1
   1.6150         1
   1.6200         0
   1.6250         3
   1.6300         2
   1.6350         0
   1.6400         0
   1.6450         2
   1.6500         0
   1.6550         0
   1.6600         0
   1.6650         1
   1.6700         0
   1.6750         0
   1.6800         0
   1.6850         1
   1.6900         0
   1.6950         1
   1.7000         1
   1.7050         1
   1.7100         1
   1.7150         1
   1.7200         2
   1.7250         2
   1.7300         3
   1.7350         1
   1.7400         0
   1.7450         0
   1.7500         0
   1.7550         1
   1.7600         1
   1.7650         0
   1.7700         0
   1.7750         0
   1.7800         0
   1.7850         0
   1.7900         3
   1.7950         3
   1.8000         0
   1.8050         1
   1.8100         1
   1.8150         1
   1.8200         1
   1.8250         2
   1.8300         2
   1.8350         0
   1.8400         0
   1.8450         2
   1.8500         2
   1.8550         0
   1.8600         0
   1.8650         1
   1.8700         0
   1.8750         0
   1.8800         0
   1.8850         1
   1.8900         2
   1.8950         0
   1.9000         0
   1.9050         0
   1.9100         0
   1.9150         1
   1.9200         0
   1.9250         0
   1.9300         3
   1.9350         0
   1.9400         0
   1.9450         0
   1.9500         1
   1.9550         0
   1.9600         1
   1.9650         0
   1.9700         0
   1.9750         0
   1.9800         1
   1.9850         1
   1.9900         0
   1.9950         0
   2.0000         2
   2.0050         0
   2.0100         0
   2.0150         0
   2.0200         2
   2.0250         0
   2.0300         0
   2.0350         1
   2.0400         0
   2.0450         0
   2.0500         0
   2.0550         0
   2.0600         1
   2.0650         0
   2.0700         1
   2.0750         0
   2.0800         0
   2.0850         0
   2.0900         0
   2.0950         0
   2.1000         0
   2.1050         0
   2.1100         0
   2.1150         1
   2.1200         0
   2.1250         0
   2.1300         0
   2.1350         0
   2.1400         0
   2.1450         1
   2.1500         0
   2.1550         0
   2.1600         0
   2.1650         0
   2.1700         1
   2.1750         0
   2.1800         1
   2.1850         0
   2.1900         0
   2.1950         0
   2.2000         0
   2.2050         0
   2.2100         0
   2.2150         2
   2.2200         0
   2.2250         0
   2.2300         1
   2.2350         0
   2.2400         0
   2.2450         0
   2.2500         0
   2.2550         0
   2.2600         0
   2.2650         1
   2.2700         0
   2.2750         0
   2.2800         0
   2.2850         0
   2.2900         0
   2.2950         0
   2.3000         0
   2.3050         0
   2.3100         1
   2.3150         1
   2.3200         1
   2.3250         0
   2.3300         0
   2.3350         0
   2.3400         0
   2.3450         2
   2.3500         0
   2.3550         0
   2.3600         0
   2.3650         0
   2.3700         0
   2.3750         1
   2.3800         2
   2.3850         0
   2.3900         0
   2.3950         0
   2.4000         0
   2.4050         0
   2.4100         0
   2.4150         0
   2.4200         0
   2.4250         0
   2.4300         0
   2.4350         0
   2.4400         0
   2.4450         0
   2.4500         1
   2.4550         0
   2.4600         0
   2.4650         0
   2.4700         0
   2.4750         0
   2.4800         0
   2.4850         1
   2.4900         0
   2.4950         0
   2.5000         0
